,freq/Hz,Re(Z)/Ohm,-Im(Z)/Ohm,|Z|/Ohm,Phase(Z)/deg,time/s,<Ewe>/V,<I>/mA,Cs/µF,Cp/µF,cycle number,I Range,|Ewe|/V,|I|/A,Ns,(Q-Qo)/mA.h,THD Ewe/%,NSD Ewe/%,NSR Ewe/%,THD I/%,NSD I/%,NSR I/%,|Ewe h2|/V,|Ewe h3|/V,|Ewe h4|/V,|Ewe h5|/V,|Ewe h6|/V,|Ewe h7|/V,|I h2|/A,|I h3|/A,|I h4|/A,|I h5|/A,|I h6|/A,|I h7|/A
0,1000018.56,0.16303849,0.98815924,1.001519,99.36894,481.3077104341355,1.799764,1658.2856,0.16105905,0.15679082,1.0,65,0.005950988,0.005941962,0,0.5219933274804883,0.7816315,0.218054,10.060158,0.6642599,1.2802817,39.170837,2.8302002e-05,1.8999275e-05,1.4386084e-05,2.0579691e-05,6.795473e-06,5.6767194e-06,1.1628676e-05,2.4660421e-05,1.4750569e-05,1.2859935e-05,1.8468347e-05,5.3267504e-06
1,912011.94,0.11691924,0.9109742,0.9184466,97.31366,482.2347100781626,1.7997578,1658.6053,0.19156383,0.18845943,1.0,65,0.0062913364,0.0068499753,0,0.9593024066166613,0.68458575,0.36146316,11.046707,0.4617229,0.8162827,37.66837,2.2077837e-05,2.3370361e-05,1.7865626e-05,1.2036686e-05,7.953885e-06,1.0055247e-05,4.4108197e-06,1.549913e-05,1.8676392e-05,3.168e-06,1.1471165e-05,7.894412e-06
2,831762.2,0.07087426,0.8353541,0.8383553,94.849556,483.1867038566852,1.7997737,1659.2966,0.22906058,0.22742349,1.0,65,0.006669407,0.007955346,0,1.3966796471130318,0.51154983,0.2172358,8.36508,0.6303263,1.131954,32.601524,2.4826522e-05,6.5098275e-06,7.066909e-06,5.4435486e-06,1.02505655e-05,1.5113448e-05,2.0588273e-05,3.5489284e-05,1.5935435e-05,1.1192286e-05,1.5289603e-05,4.379609e-06
3,758573.3,0.039045326,0.76546067,0.7664558,92.92007,484.1386999019305,1.7997811,1659.7198,0.2740941,0.2733828,1.0,65,0.007105285,0.009270312,0,1.8341635298262173,0.40275323,0.300854,7.8654,0.49518406,0.9408362,28.788864,1.5357904e-05,1.2524585e-05,5.0272147e-06,1.3761774e-05,5.759114e-06,8.205726e-06,2.4609632e-05,2.22298e-05,1.5262154e-05,1.4247553e-05,1.7776518e-05,4.148298e-06
4,691833.06,0.01163566,0.69700176,0.69709885,90.9564,485.09072133380687,1.7997686,1659.8622,0.33005393,0.32996202,1.0,65,0.0076060398,0.010910992,0,2.2717397513282167,0.4008493,0.29729038,7.761721,0.5671988,0.9455521,25.416475,1.520056e-05,1.4166288e-05,8.936681e-06,1.2576081e-05,1.0913594e-05,8.39725e-06,4.9857837e-05,2.4679395e-05,1.7355082e-05,9.612061e-06,1.14409e-05,1.1490431e-05
5,630956.8,0.0146032935,0.6363723,0.6365399,88.685425,486.04370543238474,1.7997721,1659.8488,0.3963777,0.39616907,1.0,65,0.0081922505,0.012869972,0,2.7095921429158714,0.436594,0.1624349,6.7144876,0.44047222,0.38302368,22.29559,1.7416109e-05,1.50767055e-05,1.4968613e-05,1.5563519e-05,7.2800553e-06,1.377536e-05,3.2630287e-05,1.831516e-05,3.7587222e-05,1.6905795e-05,7.0521064e-06,5.5642004e-06
6,575443.5,0.035922974,0.5834514,0.5845562,86.47676,486.9957156376331,1.7997844,1659.6973,0.47403753,0.47224736,1.0,65,0.008863471,0.015162736,0,3.1468812934810058,0.46442342,0.19856879,8.508795,0.50304824,0.5422651,20.747503,1.2737281e-05,1.5390053e-05,3.40495e-06,2.0957608e-05,1.8094575e-05,2.2560687e-05,3.4973637e-05,3.9999723e-05,4.74093e-05,1.5487412e-05,9.464048e-06,1.1338858e-05
7,524810.7,0.057395134,0.53020847,0.53330594,83.821785,487.7997130891308,1.7997578,1659.5989,0.57196677,0.56534207,1.0,65,0.009601815,0.018004328,0,3.5161071869644194,0.4667579,0.23259033,6.943996,0.32713142,0.5583901,17.53929,2.100477e-05,1.3200312e-05,1.8072978e-05,1.9452596e-05,2.034733e-05,1.3591875e-05,1.0088253e-05,2.3185177e-05,3.5962126e-05,2.932132e-05,2.1373735e-05,1.2265125e-05
8,478631.6,0.072348334,0.4835827,0.48896474,81.49114,488.6036999273347,1.7997644,1659.7186,0.6876192,0.6725653,1.0,65,0.010458687,0.02138945,0,3.8853001423281035,0.3001975,0.13157383,5.4460826,0.35815555,0.5040338,14.476083,1.3804889e-05,1.2505884e-05,8.648191e-06,4.037708e-06,1.1222103e-05,1.5618725e-05,3.249148e-05,1.911132e-05,4.5303408e-05,2.5690697e-05,2.887856e-05,1.894566e-05
9,436516.47,0.0844676,0.44166917,0.44967368,79.17313,489.55572199920425,1.7997562,1659.2677,0.82551014,0.7963824,1.0,65,0.010150043,0.02257202,0,4.322467293220705,0.38051495,0.18289976,5.343808,0.3013019,0.4447752,14.16472,1.0472232e-05,1.582584e-05,1.6376945e-05,1.730497e-05,8.214597e-06,1.8449651e-05,4.89092e-05,1.6913742e-05,1.9470497e-05,1.6998025e-05,2.5283063e-05,1.9615096e-05
10,398103.47,0.09555617,0.40062013,0.41185856,76.58444,490.5077047111117,1.7997551,1658.892,0.9979101,0.944193,1.0,65,0.010120813,0.024573516,0,4.75958158346947,0.37055692,0.23988612,5.4423313,0.31380248,0.3563116,13.2432995,1.3119536e-05,1.7790338e-05,1.4067869e-05,1.2025237e-05,1.8515686e-05,1.091562e-05,3.281142e-05,2.7037413e-05,4.1287898e-05,3.66503e-05,2.0179516e-05,1.5612932e-05
11,363077.12,0.105455056,0.3655574,0.38046417,73.90834,491.4597097696387,1.799769,1658.8263,1.1991284,1.1070044,1.0,65,0.01011578,0.026587997,0,5.196794797355334,0.26798564,0.22123614,5.7535625,0.28138107,0.5073498,13.300128,1.21007515e-05,1.622442e-05,1.0223278e-05,6.3137104e-06,5.220322e-06,9.226013e-06,4.04764e-05,1.5530022e-05,2.8143993e-05,2.5666855e-05,3.891957e-05,1.3748266e-05
12,331131.25,0.11316351,0.33443096,0.35305813,71.3054,492.41169946821174,1.7997663,1658.9852,1.4371877,1.2895375,1.0,65,0.010113774,0.028646199,0,5.633845313833064,0.32589996,0.16137089,5.4867783,0.36790767,0.25309324,11.723267,1.6350215e-05,1.3753708e-05,1.8787636e-05,8.3894665e-06,7.1597015e-06,9.700392e-06,8.549012e-05,3.3298245e-05,2.906482e-05,1.5927348e-05,3.0680854e-05,9.332611e-06
13,301996.72,0.119594924,0.30398098,0.32666096,68.52389,493.3637159934151,1.7997658,1658.378,1.7336901,1.5013081,1.0,65,0.010117952,0.030973863,0,6.071018398557173,0.2747764,0.23579022,5.4240003,0.28364244,0.3000245,10.976417,9.810174e-06,9.3286935e-06,1.5467873e-05,1.1799418e-05,7.356716e-06,9.444146e-06,4.2275806e-05,3.945227e-05,4.5336175e-05,2.5802854e-05,1.3260258e-05,2.7899376e-05
14,275423.1,0.12436939,0.27699324,0.303633,65.82002,494.3157056652708,1.7997612,1658.407,2.0861742,1.736165,1.0,65,0.010115902,0.033316214,0,6.5081632835055325,0.33596912,0.093882166,5.226911,0.38499427,0.26684642,10.140542,1.2943335e-05,4.4899134e-06,1.4163247e-05,2.042296e-05,1.2769203e-05,1.0325769e-05,7.7373006e-05,5.5289256e-05,3.559217e-05,4.9941737e-05,4.846662e-05,1.4372222e-05
15,251187.64,0.12956643,0.25318387,0.28441086,62.89898,495.2677159504965,1.7997621,1658.2642,2.5025675,1.9831955,1.0,65,0.010125592,0.03560199,0,6.945360104189436,0.45196882,0.202206,5.485971,0.47316703,0.33939317,9.629576,1.4838435e-05,3.4043358e-05,1.7739172e-05,9.050298e-06,1.3556867e-05,9.782924e-06,7.86883e-05,0.00012430866,4.501553e-05,3.8595597e-05,3.2356642e-05,9.468246e-06
16,229086.25,0.13285945,0.23149037,0.26690716,60.14716,496.2197152490844,1.7997724,1658.0568,3.0011532,2.2575305,1.0,65,0.010146959,0.03801681,0,7.382589887033609,0.3227146,0.12034007,5.230893,0.4035583,0.23931225,9.029226,1.849467e-05,1.2803304e-05,7.273387e-06,1.4499552e-05,1.17770915e-05,1.2316217e-05,8.55012e-05,5.1930216e-05,7.492519e-05,4.4378237e-05,4.7120808e-05,2.6526692e-05
17,208933.34,0.13571683,0.21099703,0.25087607,57.250195,497.1717030276195,1.7997652,1658.023,3.6102397,2.5537024,1.0,65,0.010143224,0.040431216,0,7.819436228479796,0.29975367,0.1456004,5.330793,0.3408917,0.25203028,8.693696,4.7969093e-06,1.6601467e-05,9.153894e-06,1.5210065e-05,1.0653869e-05,1.188211e-05,6.7118286e-05,7.364472e-05,4.2740743e-05,6.251065e-05,2.2305921e-05,3.317715e-05
18,190543.34,0.13817589,0.19203305,0.23657826,54.26339,498.1237064861343,1.7997754,1657.2054,4.3496103,2.865845,1.0,65,0.010154691,0.04292318,0,8.25665609356455,0.33462593,0.15193364,5.4448886,0.23808493,0.26010743,8.228588,1.374689e-05,1.8843968e-05,7.0405677e-06,1.569474e-05,1.4458887e-05,8.357937e-06,3.5493777e-05,2.2800727e-05,5.2463056e-05,3.0903808e-05,3.7695336e-05,3.550482e-05
19,173777.1,0.14008144,0.17498799,0.22415085,51.322018,499.07570231804857,1.7997566,1656.7833,5.2338276,3.1897385,1.0,65,0.010144395,0.045257,0,8.693622273761829,0.291154,0.15543233,5.336462,0.25709838,0.19512239,7.823976,1.00718125e-05,1.2911592e-05,9.207317e-06,1.974887e-05,9.306218e-06,5.6321423e-06,5.4314354e-05,6.239923e-05,4.2120762e-05,3.6963324e-05,1.6057611e-05,4.422586e-05
20,158486.12,0.141574,0.15988094,0.21355353,48.475224,500.02771308325464,1.7997622,1656.3933,6.2810493,3.5205624,1.0,65,0.010154316,0.047549278,0,9.130242900721523,0.31836072,0.1350441,5.263125,0.3328738,0.19723141,7.3580785,6.291808e-06,2.188723e-05,7.1915033e-06,1.499349e-05,1.1232092e-05,8.27456e-06,8.268181e-05,6.359072e-05,6.916198e-05,6.024992e-05,4.0900173e-05,6.114198e-05
21,144540.53,0.14331643,0.14579786,0.2044422,45.491753,500.97972286178265,1.7997692,1656.0725,7.552302,3.8409667,1.0,65,0.010173789,0.049763646,0,9.566784520226955,0.28973094,0.1486338,5.5899935,0.32969525,0.16449538,7.37592,1.4622919e-05,7.502138e-06,7.6055e-06,1.47674655e-05,1.1124053e-05,1.0426639e-05,8.648874e-05,7.801191e-05,4.8411555e-05,5.225369e-05,3.6773064e-05,5.282603e-05
22,131847.53,0.14430289,0.1327265,0.19606031,42.60714,501.9327167470474,1.7997696,1656.101,9.094743,4.1679873,1.0,65,0.01016789,0.051861033,0,10.003923804768245,0.29576582,0.11529337,5.9384785,0.31238073,0.22668344,7.0845027,1.6581143e-05,6.802007e-06,1.8527677e-05,3.0781828e-06,6.718224e-06,5.9740696e-06,4.4219174e-05,0.00010035318,8.192174e-05,5.4408054e-05,4.4739994e-05,2.9508317e-05
23,120230.84,0.14501932,0.12142946,0.1891447,39.940548,502.8857172456919,1.7997575,1656.1162,10.901347,4.4930363,1.0,65,0.010176645,0.05380349,0,10.44070938845755,0.31965843,0.107843906,5.3229403,0.31407595,0.24421482,6.6389065,1.8256256e-05,1.515788e-05,1.5167971e-05,1.0590427e-05,4.393782e-06,7.972342e-06,6.771695e-05,9.736726e-05,6.719928e-05,6.1770064e-05,3.656136e-05,5.1623494e-05
24,109644.08,0.14575402,0.11044812,0.18287434,37.15378,503.8377239842084,1.7997733,1655.8905,13.142459,4.7938867,1.0,65,0.010178471,0.05565828,0,10.877599232552834,0.27293152,0.12265856,5.37598,0.21580496,0.1811578,6.3631616,1.0585663e-05,7.2276757e-06,7.0928686e-06,1.1660345e-05,1.6948696e-05,8.910253e-06,6.298938e-05,4.046579e-05,3.7368565e-05,3.283736e-05,6.374593e-05,4.609958e-05
25,100003.71,0.14656384,0.100580856,0.17775677,34.460236,504.789703362796,1.7997737,1655.5275,15.822994,5.0660214,1.0,65,0.010186092,0.057303537,0,11.313959141677856,0.2928173,0.15466511,6.2924776,0.33528885,0.17077832,6.1560187,1.49403595e-05,6.759556e-06,9.423003e-06,9.371612e-06,1.4339683e-05,1.3133473e-05,4.625262e-05,9.746601e-05,6.9045695e-05,9.9272496e-05,4.19098e-05,3.0731353e-05
26,91198.414,0.14690728,0.09150209,0.17307335,31.916965,505.74270399467787,1.7997748,1655.2617,19.072245,5.3309355,1.0,65,0.01019106,0.058882892,0,11.751137983107487,0.27836236,0.20572363,5.739047,0.25129855,0.1584126,6.082778,8.21542e-06,1.6094962e-05,6.0512143e-06,1.9183783e-05,4.1946587e-06,5.8934434e-06,4.151745e-05,7.558481e-05,7.9534824e-05,6.317514e-05,2.767166e-05,5.105953e-05
27,83172.51,0.14696424,0.083224006,0.16889264,29.522335,506.6947060932289,1.7997757,1655.0297,22.992794,5.5829988,1.0,65,0.010193296,0.060353704,0,12.187665621847364,0.2971644,0.15203483,5.3475566,0.3428556,0.1668027,5.9461846,1.5559444e-05,7.252316e-06,1.1791661e-05,1.0865467e-05,6.7566953e-06,1.345755e-05,0.00011790697,8.185113e-05,9.730408e-05,4.966236e-05,6.155291e-05,3.3225682e-05
28,75861.05,0.1476491,0.07549352,0.16582981,27.080828,507.64772125851596,1.7997713,1654.9102,27.790195,5.7595134,1.0,65,0.0101949945,0.06147866,0,12.624151650957982,0.32042235,0.12049755,5.2569003,0.25585666,0.1516448,5.754533,1.913598e-05,6.206005e-06,1.4724576e-05,8.485581e-06,1.1592493e-05,1.0700158e-05,5.6496734e-05,4.01295e-05,8.704832e-05,4.6879573e-05,3.8280898e-05,8.89164e-05
29,69180.52,0.14795166,0.068922356,0.1632176,24.978163,508.59971530374605,1.7997695,1654.4764,33.37922,5.9519925,1.0,65,0.010216453,0.06259406,0,13.060045628453572,0.36853722,0.23076311,5.5920124,0.3409067,0.14393339,5.727391,1.3810576e-05,1.4138244e-05,1.2624152e-05,1.9111438e-05,1.6961565e-05,8.338911e-06,8.592579e-05,6.5729604e-05,8.035563e-05,2.9400813e-05,9.1199094e-05,0.00012435856
30,63093.83,0.14841592,0.06246051,0.1610236,22.823683,509.55172449559905,1.7997756,1654.4014,40.38571,6.0765867,1.0,65,0.010224643,0.06349779,0,13.496052155395242,0.39636338,0.21974173,5.900064,0.26326308,0.25401753,5.633595,1.9208763e-05,1.793657e-05,1.5495545e-05,5.407635e-06,1.6469021e-05,1.850405e-05,3.4065513e-05,3.4199675e-05,5.024086e-05,3.6471058e-05,8.12389e-05,0.00011149015
31,57545.28,0.14844261,0.056516085,0.15883726,20.843172,510.5036999275326,1.7997495,1654.2009,48.937115,6.1955194,1.0,65,0.010220085,0.064343125,0,13.931919142919673,0.28963402,0.1519723,5.3234735,0.3626159,0.13884111,5.6316113,1.2315129e-05,1.5616588e-05,8.878383e-06,1.6611504e-05,4.1086164e-06,9.300141e-06,9.7988086e-05,8.413269e-05,0.00011085562,4.3728272e-05,7.894682e-05,9.257614e-05
32,52479.215,0.14838116,0.05103789,0.15691346,18.981411,511.4557045593974,1.7997583,1654.1235,59.421024,6.286445,1.0,65,0.010211124,0.065074876,0,14.367960076138576,0.42391738,0.20196028,7.7430944,0.2931206,0.15416932,5.5986686,1.2209267e-05,1.3450769e-05,2.557885e-05,1.2487597e-05,2.0286341e-05,1.450674e-05,4.151396e-05,0.00010480586,7.094223e-05,6.6828085e-05,0.00010731309,3.348663e-05
33,47858.52,0.14851297,0.046332188,0.15557241,17.326565,512.40769951127,1.7997683,1657.1698,71.77581,6.366174,1.0,65,0.010225212,0.065726385,0,14.804348864761087,0.2795134,0.16651754,5.12189,0.28994536,0.33075127,5.5501037,1.4229936e-05,1.5699867e-05,1.2537407e-05,3.9114166e-06,6.2686686e-06,1.060366e-05,9.522463e-05,3.0325722e-05,8.4671454e-05,4.1014682e-05,6.084199e-05,0.000101783764
34,43655.36,0.14918476,0.041597124,0.15487549,15.580042,513.3597126231762,1.7997619,1658.8993,87.64341,6.3223786,1.0,65,0.010227827,0.06603903,0,15.240977042678198,0.31253588,0.20208435,6.864016,0.18217564,0.16536786,5.540176,1.3404444e-05,1.29671125e-05,1.0507555e-05,1.1216708e-05,1.37150755e-05,1.3273082e-05,3.4435205e-05,4.6383506e-05,3.376508e-05,4.491319e-05,7.04754e-05,3.8608483e-05
35,39814.062,0.14920983,0.037487812,0.15384702,14.103212,514.3117234417005,1.7997606,1660.0968,106.63348,6.331339,1.0,65,0.010209513,0.06636146,0,15.678093324023989,0.2679538,0.16828774,5.7734385,0.22453517,0.12910903,5.4312644,7.2279545e-06,5.8640194e-06,9.795365e-06,1.716162e-05,1.1225502e-05,9.762782e-06,3.0639338e-05,7.459178e-05,4.7527796e-05,4.9735758e-05,6.588755e-05,5.254318e-05
36,36306.785,0.14933142,0.033583235,0.15306112,12.6744175,515.2647175936727,1.7997568,1660.4563,130.52983,6.283839,1.0,65,0.010230351,0.06683834,0,16.11624148615413,0.25110424,0.11242697,5.4099884,0.22414476,0.21666004,5.421456,7.851995e-06,1.3290752e-05,1.3156682e-05,5.3225494e-06,9.803307e-06,6.380805e-06,4.3868236e-05,7.0573624e-05,4.4000164e-05,6.8982554e-05,4.7170528e-05,6.72688e-05
37,33114.977,0.1499196,0.030191753,0.15292948,11.386287,516.2167012388818,1.7997649,1660.8818,159.1869,6.2044253,1.0,65,0.010243339,0.0669808,0,16.553679969030696,0.2329567,0.19779046,5.595994,0.29704496,0.15112586,5.5332346,6.8236805e-06,1.2443461e-05,1.024176e-05,6.1324295e-06,7.746911e-06,1.1270944e-05,6.383065e-05,4.0123814e-05,0.00011716674,9.165451e-05,1.3720791e-05,7.754339e-05
38,30201.531,0.14986435,0.026909623,0.15226112,10.179545,517.1687226174399,1.7997638,1661.0514,195.83195,6.1167502,1.0,65,0.010224793,0.067153014,0,16.991298902444626,0.3619765,0.2743245,6.4103804,0.27560538,0.117985345,5.472653,1.3735544e-05,1.7927614e-05,1.2284742e-05,6.561997e-06,1.0154741e-05,2.1967555e-05,8.352636e-05,6.287964e-05,5.7851707e-05,9.4613475e-05,4.6319754e-05,6.867023e-05
39,27538.598,0.15022068,0.024257598,0.15216663,9.172925,518.1207175693125,1.799759,1660.652,238.24869,6.054625,1.0,65,0.010234636,0.0672594,0,17.42863584652482,0.31962463,0.19129309,5.149819,0.30122948,0.12922446,5.331255,1.2225002e-05,8.6795335e-06,1.5704716e-05,7.443266e-06,1.8285118e-05,6.5564227e-06,6.585824e-05,6.3762294e-05,0.0001342758,7.6127195e-05,5.091115e-05,3.9414826e-05
40,25116.906,0.15073499,0.02137128,0.15224247,8.06964,519.0737055345671,1.7997621,1660.2062,296.49915,5.842691,1.0,65,0.010227953,0.067182,0,17.866433399853495,0.2517588,0.13893,5.405593,0.20487404,0.16244133,5.4123197,6.7866545e-06,1.14440245e-05,1.369043e-05,8.311819e-06,9.377475e-06,9.842646e-06,4.238702e-05,5.5760396e-05,2.7512202e-05,6.351861e-05,6.237881e-05,5.9839545e-05
41,22908.629,0.15094435,0.019116716,0.15215008,7.2179365,520.0257127797813,1.7997743,1659.6118,363.4191,5.7370677,1.0,65,0.010205689,0.06707646,0,18.303824391831714,0.3222175,0.1347384,5.6648016,0.256672,0.19523051,5.3743277,1.7040851e-05,1.1715387e-05,1.3421908e-05,1.1298079e-05,1.3140894e-05,9.374437e-06,5.7675414e-05,0.00011510353,3.455402e-05,6.145171e-05,5.653697e-05,5.360161e-05
42,20895.191,0.15116185,0.016786465,0.15209106,6.3367114,520.9777022116468,1.7997574,1659.2802,453.74777,5.527461,1.0,65,0.010209371,0.067126706,0,18.741319834173467,0.25223345,0.13483368,5.659483,0.20218514,0.13033457,5.497588,9.322761e-06,5.7983407e-06,8.642871e-06,1.11055e-05,1.11223035e-05,1.0170767e-05,5.6605237e-05,4.2236887e-05,4.3741744e-05,5.2043804e-05,5.0373503e-05,6.411736e-05
43,19058.049,0.15139745,0.014512276,0.1520914,5.475386,521.9307156169089,1.7997564,1658.8143,575.4481,5.239236,1.0,65,0.010176475,0.06691026,0,19.178961190565957,0.3069176,0.2796366,5.873492,0.28602445,0.14598767,5.5106316,1.41687915e-05,1.2188504e-05,1.2083356e-05,1.6222184e-05,9.411302e-06,7.322374e-06,0.00010640467,7.628156e-05,8.7564986e-05,6.764516e-05,5.5068595e-05,4.5565706e-05
44,17378.635,0.15178157,0.012869527,0.1523262,4.8465047,522.8827052888228,1.7997558,1658.8002,711.6098,5.079464,1.0,65,0.010168861,0.066757135,0,19.616475645060433,0.3643528,0.16712163,5.6782484,0.2913279,0.14199714,5.4590273,1.7262948e-05,1.999029e-05,1.8143628e-05,1.1700312e-05,8.227986e-06,5.321957e-06,3.9504623e-05,4.8619142e-05,0.00012080555,4.4881577e-05,5.367333e-05,0.000106790496
45,15847.683,0.15190627,0.011411111,0.15233426,4.2959576,523.8347028807038,1.7997696,1658.7761,880.0887,4.93841,1.0,65,0.010107247,0.06634914,0,20.0531311554416,0.27924854,0.15959081,6.332717,0.28135818,0.14035475,5.637818,2.8236782e-06,1.3234235e-05,1.0614619e-05,1.6378925e-05,8.70281e-06,8.571803e-06,0.000117123345,9.539699e-05,5.8793903e-05,4.8250087e-05,6.721588e-05,3.466928e-05
46,14455.907,0.15236238,0.009644829,0.15266734,3.622099,524.6387144655455,1.7997595,1658.1229,1141.5115,4.5559297,1.0,65,0.010813382,0.070829704,0,20.422183718638156,0.39777285,0.19801795,7.2364426,0.26656678,0.12036416,5.3551817,1.1391342e-05,1.84816e-05,1.0236116e-05,1.6385186e-05,1.9214316e-05,2.1371234e-05,5.2334373e-05,4.3321455e-05,0.00011978905,5.9965863e-05,6.6329776e-05,6.885004e-05
47,13184.756,0.15282029,0.008210241,0.15304068,3.0752485,525.5907038440928,1.7997612,1657.6871,1470.2532,4.231459,1.0,65,0.010132106,0.066205315,0,20.859566610896376,0.29127806,0.2044335,6.1118603,0.2581476,0.127413,5.588466,1.792692e-05,4.69513e-06,9.179569e-06,5.5115083e-06,1.1179954e-05,1.1012961e-05,8.943302e-05,2.939457e-05,2.7336831e-05,3.7907364e-05,9.607437e-05,7.789166e-05
48,12024.939,0.15334067,0.006518631,0.15347916,2.4342225,526.3947007622919,1.7997483,1658.114,2030.3965,3.6626449,1.0,65,0.01036204,0.067514315,0,21.228693266776244,0.24080105,0.2408893,6.007213,0.28219798,0.114420645,5.6249022,1.0087109e-05,1.3537253e-05,1.0215119e-05,4.770459e-06,6.047344e-06,1.1722277e-05,7.406804e-05,5.6068613e-05,9.4642455e-05,8.1930426e-05,4.3028063e-05,9.028988e-05
49,10967.1875,0.15341127,0.005516339,0.15351042,2.0593455,527.1987073871423,1.7997535,1660.2719,2630.7156,3.3970354,1.0,65,0.010396063,0.0677222,0,21.598022361956012,0.31875208,0.20584378,5.677583,0.31777567,0.13303149,5.534504,9.393843e-06,1.1444552e-05,3.3697204e-06,2.0371419e-05,1.3689674e-05,1.1054222e-05,4.1565927e-05,7.3215095e-05,4.4360593e-05,3.6604695e-05,0.00012939845,0.00012385483
50,10002.226,0.15394828,0.004207009,0.15400575,1.5653563,528.0027247053222,1.7997515,1661.3071,3782.2485,2.8224292,1.0,65,0.010330333,0.067077585,0,21.967389392018635,0.3600166,0.19142528,5.7344728,0.29171124,0.15353556,5.4933386,1.7888318e-05,1.3327165e-05,1.6377997e-05,1.5884363e-05,1.257431e-05,8.945572e-06,7.737257e-05,1.6763039e-05,0.00010522327,7.717586e-05,6.030903e-05,8.486971e-05
51,9117.544,0.1543852,0.0034735792,0.15442427,1.288905,528.9565837106202,1.7998512,1662.7227,5025.3354,2.5426605,1.0,65,0.010210269,0.06611829,0,22.401049241490362,0.33565915,0.21481194,7.120177,0.30336222,0.13123389,5.6164927,7.689016e-06,1.1746282e-05,8.972711e-06,1.2066344e-05,2.2877115e-05,1.2694863e-05,7.6327684e-05,0.00010952098,4.9787854e-05,9.888081e-05,7.0939306e-05,3.213627e-05
52,8314.445,0.15434662,0.002397811,0.15436524,0.8900319,529.7514562017168,1.7998425,1662.9841,7983.106,1.9262062,1.0,65,0.010179244,0.06594259,0,22.75794508379751,0.3736018,0.16054499,6.944907,0.24502324,0.16741374,5.934811,2.2821707e-05,4.182544e-06,1.3497086e-05,1.985719e-05,1.1015046e-05,8.805321e-06,5.5932687e-05,8.1353086e-05,2.8456734e-05,7.215782e-05,4.2176074e-05,7.583745e-05
53,7583.5884,0.1550604,0.0014190585,0.15506689,0.5243363,530.5363923989935,1.7998441,1663.4603,14789.213,1.2385329,1.0,65,0.010144902,0.06542275,0,23.111805246747174,0.35807866,0.16051191,5.986127,0.2700586,0.21607327,5.5591965,1.4862984e-05,1.445633e-05,8.46666e-06,1.5855518e-05,1.9214987e-05,8.146758e-06,7.608402e-05,9.105295e-05,4.9510087e-05,3.091439e-05,6.4358945e-05,7.540437e-05
54,6916.754,0.15543513,0.000840768,0.15543741,0.30991697,531.3204260629136,1.7998486,1663.7465,27367.91,0.800724,1.0,65,0.010102004,0.06499081,0,23.467242541656706,0.3413969,0.14623788,5.5982313,0.2390502,0.21632266,5.6479077,1.1265172e-05,1.4673594e-05,1.3650277e-05,1.2159427e-05,1.4558572e-05,1.3421105e-05,7.141972e-05,6.804371e-05,3.8991206e-05,5.739274e-05,4.3783715e-05,7.988421e-05
55,6307.736,0.15536678,0.00029471854,0.15536706,0.10868545,532.1107748470968,1.7998582,1663.8745,85612.9,0.30806065,1.0,65,0.010026861,0.064536594,0,23.82608996084001,0.4453787,0.16839674,6.7527566,0.26716083,0.17675643,6.077266,1.7539558e-05,1.8050087e-05,1.6634836e-05,1.4729382e-05,1.9069394e-05,9.479691e-06,4.3773616e-05,6.826026e-05,6.0795242e-05,9.90363e-05,4.6325014e-05,7.194604e-05
56,5755.693,0.15613857,0.00058497285,0.15613967,0.21465752,532.9143950719736,1.799849,1664.1267,47270.13,0.6634859,1.0,65,0.009987969,0.06396817,0,24.19213319990423,0.42774326,0.13987261,5.829036,0.2773271,0.23076938,5.776759,2.3831162e-05,1.6408254e-05,1.1506096e-05,2.2453547e-05,1.3063528e-05,7.963269e-06,5.6442957e-05,7.1167815e-05,2.1011992e-05,7.419806e-05,0.0001112421,5.9377788e-05
57,5247.5034,0.1564288,0.0011558413,0.15643308,0.42334673,533.7376834310708,1.7998455,1664.3835,26240.326,1.4325455,1.0,65,0.00993097,0.06348383,0,24.568119933236122,0.3065768,0.17299561,5.7245517,0.3138572,0.23880889,5.7253957,9.97397e-06,1.9765288e-05,1.1632782e-05,1.2517826e-05,7.326205e-06,6.2135564e-06,2.910501e-05,9.369504e-05,0.00013203711,2.3990615e-05,9.221834e-05,4.5620065e-05
58,4786.529,0.15694986,0.0014949434,0.15695699,0.54572433,534.5609052568834,1.7998555,1664.4468,22242.045,2.0177293,1.0,65,0.009898115,0.06306259,0,24.946362754677985,0.4236257,0.23293492,5.7863445,0.56981015,0.07876541,5.8115873,2.1698077e-05,2.0338124e-05,1.6995542e-05,9.022056e-06,1.5826548e-05,1.4320678e-05,5.4713448e-05,0.00014277193,0.00012857889,0.00012636166,0.00017640593,0.00018645183
59,4366.398,0.15725768,0.0022194088,0.15727334,0.808573,535.3829254025914,1.799853,1664.5908,16423.268,3.2705736,1.0,65,0.009849203,0.062624745,0,25.32526814946111,0.33381525,0.09022141,5.8314404,0.32773608,0.18624532,5.8329463,8.713741e-06,1.3697443e-05,1.1161812e-05,1.2670304e-05,1.9353336e-05,8.3819195e-06,7.392433e-05,9.3860675e-05,7.5688986e-05,7.428252e-05,6.159278e-05,9.502472e-05
60,3981.2773,0.15793091,0.0029126382,0.15795776,1.0565567,536.2049332816314,1.7998518,1664.6555,13724.962,4.6666183,1.0,65,0.00982889,0.062224798,0,25.703829337911976,0.39181983,0.23990928,7.383833,0.3437657,0.16541842,6.189678,1.35362125e-05,1.4234039e-05,1.4963673e-05,1.6821146e-05,3.7930579e-06,2.046172e-05,7.836276e-05,6.313049e-05,9.540152e-05,8.2576706e-05,0.00010938188,7.095566e-05
61,3631.1597,0.15803984,0.0032186527,0.1580726,1.1667295,537.0269295873441,1.7998501,1664.7683,13617.603,5.645932,1.0,65,0.009784564,0.061899178,0,26.082275552228307,0.41899574,0.20834081,5.848036,0.34463823,0.15181087,5.8883133,8.233316e-06,2.4946978e-05,1.6345975e-05,2.074776e-05,5.5021887e-06,1.055494e-05,5.4484168e-05,0.0001173376,8.1774e-05,8.622445e-05,6.807437e-05,6.8436966e-05
62,3311.0603,0.15873957,0.0033798933,0.15877554,1.2197613,537.8489275463871,1.799846,1664.6216,14221.651,6.4444942,1.0,65,0.009773539,0.0615557,0,26.46092713547055,0.500468,0.2985798,8.644456,0.32064646,0.25383705,6.6900034,1.5493502e-05,1.3093727e-05,2.1517975e-05,1.6677202e-05,2.1989297e-05,2.2116743e-05,8.062906e-05,9.218147e-05,4.203024e-05,6.492501e-05,7.252765e-05,0.00010064588
63,3019.035,0.1590748,0.0033825033,0.15911075,1.2181312,538.6710516654275,1.7998434,1664.9225,15585.249,7.0435424,1.0,65,0.009749685,0.061276093,0,26.839884314828026,0.42606282,0.18073134,7.60328,0.31483597,0.24097505,6.3393064,2.349039e-05,1.1497326e-05,1.3034144e-05,1.3533766e-05,1.425617e-05,1.8078146e-05,6.3217754e-05,0.00013121024,6.7741945e-05,5.523122e-05,5.6540168e-05,5.622576e-05
64,2754.122,0.15923563,0.0042794384,0.15929312,1.5394467,539.493048184464,1.7998525,1664.8934,13503.619,9.746074,1.0,65,0.009722206,0.061033435,0,27.218667555175465,0.39943302,0.13474362,5.742884,0.24855255,0.2069007,6.0879073,1.4385245e-05,8.554059e-06,1.0254829e-05,1.5086686e-05,1.8349554e-05,1.946514e-05,4.0149698e-05,4.9147297e-05,6.808083e-05,6.2312276e-05,6.5756634e-05,6.2246734e-05
65,2512.4104,0.15961263,0.004465832,0.15967509,1.6026714,540.3147655034554,1.7998456,1664.8584,14184.929,11.095773,1.0,65,0.009705211,0.060781,0,27.597000997980807,0.6140881,0.3652645,9.98058,0.29372662,0.16255493,6.4146805,2.1390637e-05,2.7257674e-05,1.9982797e-05,9.167199e-06,2.9231182e-05,3.0840023e-05,6.608327e-05,4.0905616e-05,4.5637047e-05,7.8880184e-05,5.5920536e-05,9.559281e-05
66,2290.7332,0.16006492,0.004798223,0.16013682,1.7170259,541.1368967692251,1.7998366,1664.8815,14479.89,13.00001,1.0,65,0.009693329,0.060531545,0,27.97597289234172,0.38071615,0.16265719,6.231656,0.3300455,0.18405055,6.098211,2.749785e-05,8.061819e-06,9.3405415e-06,6.532858e-06,1.085746e-05,1.3123363e-05,3.630973e-05,6.165171e-05,9.608641e-05,0.00011077114,3.148042e-05,8.8774745e-05
67,2089.329,0.16049957,0.005038397,0.16057864,1.7980366,541.9590540882637,1.7998524,1664.8181,15118.926,14.884358,1.0,65,0.009687021,0.060325716,0,28.354939861227724,0.42275757,0.23076475,7.9522243,0.30352303,0.19651437,6.1001043,1.7944227e-05,1.2650497e-05,1.5344096e-05,2.001825e-05,8.990652e-06,1.8633726e-05,7.728396e-05,4.5247558e-05,7.538918e-05,7.092032e-05,6.085546e-05,7.99313e-05
68,1905.6127,0.16097568,0.0049829353,0.16105278,1.773001,542.7809084739783,1.7998636,1664.9603,16761.012,16.0448,1.0,65,0.009674446,0.06007003,0,28.73331164565309,0.38335347,0.12805445,5.9774585,0.30338126,0.11464588,6.167742,9.564015e-06,1.1985832e-05,6.1416868e-06,1.4261202e-05,2.1749265e-05,1.5302041e-05,3.161135e-05,7.66703e-05,7.3005205e-05,7.41513e-05,0.00010713335,6.0261045e-05
69,1738.3322,0.1612121,0.0051984647,0.16129589,1.8469267,543.6031535530055,1.7998623,1665.4093,17612.146,18.294304,1.0,65,0.009666947,0.059933003,0,29.112456815026814,0.35201746,0.17773576,5.860036,0.32206887,0.13542938,6.0263677,1.1456161e-05,6.562561e-06,1.8104196e-05,7.978422e-06,1.1034867e-05,1.8974719e-05,4.4711327e-05,0.00012194243,4.646231e-05,0.00010761728,5.0185798e-05,4.8521564e-05
70,1584.4927,0.16158147,0.0057188477,0.16168265,2.0270214,544.4250356720586,1.7998484,1665.4644,17563.916,21.974125,1.0,65,0.009660996,0.05975283,0,29.491475259396765,0.24331334,0.31858042,5.7524467,0.36146426,0.12029899,6.182556,8.411417e-06,1.1209322e-05,5.575514e-06,9.303248e-06,1.0494495e-05,5.230532e-06,7.413815e-05,0.00011590959,2.2661134e-05,9.691385e-05,5.5044937e-05,0.00010129286
71,1445.4648,0.16230337,0.0058765532,0.16240972,2.0736148,545.2469048577696,1.7998637,1665.4824,18736.564,24.530773,1.0,65,0.009651064,0.059424177,0,29.870151935939578,0.43253618,0.20835814,5.982703,0.36527738,0.1911053,6.185043,2.6205344e-05,1.3358604e-05,1.0080786e-05,7.5480016e-06,7.3660985e-06,2.1359449e-05,8.533125e-05,0.00010391499,8.4046405e-05,6.301746e-05,7.889896e-05,0.00010704516
72,1317.8885,0.16241033,0.0064000976,0.16253638,2.2566848,546.0693192168255,1.7998489,1665.6813,18869.258,29.256802,1.0,65,0.009647258,0.05935445,0,30.249275648161465,0.37339443,0.17511217,6.316217,0.3817403,0.2541718,6.2709537,1.7381752e-05,1.4904477e-05,7.447768e-06,1.8247474e-05,1.2148813e-05,7.94338e-06,9.6564574e-05,0.00010146708,9.225937e-05,3.0674593e-05,7.0969276e-05,9.327951e-05
73,1201.9202,0.16295218,0.006318096,0.16307463,2.2203996,546.8906750957831,1.7998583,1665.7875,20958.408,31.459944,1.0,65,0.009637216,0.05909697,0,30.62819753147899,0.2886446,0.17518377,5.9680634,0.38892323,0.13046534,6.21963,6.138468e-06,1.2953519e-05,1.07696e-05,9.203844e-06,1.2361457e-05,8.991502e-06,6.450624e-05,0.00014025497,4.9947987e-05,0.00013487293,7.1277995e-05,4.4278186e-05
74,1096.7552,0.16369276,0.0066224374,0.16382666,2.3167238,547.7126612415304,1.7998639,1665.9875,21912.531,35.80627,1.0,65,0.0096460795,0.05887979,0,31.007350860375087,0.3653024,0.12205184,6.0546675,0.29708683,0.19648261,6.247449,2.1809076e-06,1.17571035e-05,7.882448e-06,1.4215736e-05,2.2161317e-05,1.3758663e-05,7.631409e-05,7.98668e-05,6.147613e-05,3.6642752e-05,6.707624e-05,6.625234e-05
75,999.68164,0.1635032,0.0068108584,0.163645,2.385323,548.5350320539437,1.7998698,1666.2278,23375.266,40.490654,1.0,65,0.009627683,0.05883274,0,31.386471690935135,0.28962478,0.21859169,6.1102557,0.31417868,0.2100993,6.2252955,1.059615e-05,7.104093e-06,4.109282e-06,8.769734e-06,1.5289263e-05,1.2854122e-05,4.2311403e-05,7.9059915e-05,6.87594e-05,5.341244e-05,8.2875704e-05,7.9986254e-05
76,912.04047,0.16439,0.006744322,0.16452828,2.3493192,549.356547479576,1.7998579,1666.2625,25874.25,43.477364,1.0,65,0.009635071,0.058561794,0,31.765601434618738,0.35040116,0.21621685,6.0801306,0.3795766,0.12591912,6.6552057,1.0406562e-05,1.2268715e-05,1.7959348e-05,1.0532902e-05,1.611382e-05,1.142114e-05,7.470807e-05,6.447913e-05,0.00010825537,9.1109956e-05,5.9658236e-05,9.365481e-05
77,831.86475,0.16457248,0.0068942127,0.16471682,2.398812,550.1785117053078,1.7998366,1666.1385,27751.262,48.615658,1.0,65,0.009629803,0.058462776,0,32.14440834708829,0.40141705,0.2049603,5.9176393,0.36152405,0.2494132,6.289946,6.618062e-06,1.6482907e-05,9.402747e-06,2.1965821e-05,1.11961945e-05,1.689187e-05,5.0283623e-05,7.832723e-05,7.119326e-05,0.00010285318,0.00010672393,6.458639e-05
78,758.7895,0.1653715,0.0071655316,0.16552667,2.4810688,551.0012813177309,1.7998416,1666.3094,29271.867,54.854378,1.0,65,0.009639678,0.0582364,0,32.523589448530196,0.29346925,0.13380998,5.8859987,0.38792655,0.33790883,6.3112884,4.4057174e-06,3.5207488e-06,1.5605836e-05,1.1296865e-05,1.33645835e-05,1.2618824e-05,7.418667e-05,7.399511e-05,0.00014622479,8.4664476e-05,6.33233e-05,5.669045e-05
79,691.9928,0.16558793,0.0073439474,0.16575071,2.5394459,551.8223993033753,1.7998476,1666.4478,31317.637,61.480488,1.0,65,0.009640261,0.058161203,0,32.90262399233045,0.29070938,0.18013494,5.7457385,0.28330955,0.1917528,6.3239727,1.1409811e-05,1.2020798e-05,8.530378e-06,1.1362478e-05,1.4573485e-05,4.4688027e-06,6.152394e-05,8.693828e-05,7.005808e-05,5.741044e-05,5.5981036e-05,4.71709e-05
80,631.00977,0.16612473,0.0074865445,0.16629334,2.5803344,552.6446508357767,1.7998426,1666.4294,33690.125,68.2835,1.0,65,0.009639257,0.05796538,0,33.28154109065967,0.3276521,0.20925502,6.265499,0.3189634,0.18643826,6.3710995,8.94966e-06,1.5789921e-05,3.6115232e-06,1.4567073e-05,1.6596223e-05,9.474703e-06,7.613002e-05,9.004236e-05,5.8617523e-05,5.721846e-05,6.6894274e-05,7.385392e-05
81,575.55286,0.16637215,0.007619692,0.16654655,2.6222615,553.4667699147831,1.7998376,1666.4082,36290.88,75.962814,1.0,65,0.009623561,0.057783008,0,33.660475718853,0.2942068,0.08101447,6.535664,0.47162524,0.16035917,6.4315414,4.325449e-06,1.4397858e-05,9.886766e-06,1.6661052e-05,1.0552113e-05,7.28296e-06,0.00012580196,0.00010664711,7.1626426e-05,0.000107863656,0.00012745382,6.678663e-05
82,524.83234,0.167166,0.007330503,0.16732664,2.5109053,554.2890526472474,1.7998471,1666.3531,41368.117,79.39682,1.0,65,0.009632212,0.05756532,0,34.03984875125016,0.532543,0.20637895,7.6987076,0.41225648,0.22908562,6.5151944,1.16220135e-05,1.6646118e-05,1.3579341e-05,2.358726e-05,2.0972791e-05,2.9500638e-05,0.00012489718,8.6947344e-05,0.000105030296,0.00011596944,5.463742e-05,6.263196e-05
83,478.62158,0.16764925,0.00787416,0.16783407,2.6890955,555.1115676729241,1.7998636,1666.4215,42230.246,92.9548,1.0,65,0.009624936,0.057347924,0,34.41884919769796,0.30625245,0.12370055,5.862126,0.3508748,0.19442827,6.3599396,1.2923731e-05,1.5758556e-05,1.0793579e-05,9.946302e-06,6.082123e-06,8.436968e-06,5.6959132e-05,0.00012515907,6.714293e-05,6.439044e-05,8.849112e-05,4.1160267e-05
84,436.53696,0.16817781,0.0076557645,0.16835198,2.6064103,555.9322702186182,1.7998583,1666.3035,47622.324,98.48073,1.0,65,0.009618936,0.057135865,0,34.79732496927516,0.227502,0.10435567,6.008739,0.40425336,0.21987796,6.538633,7.955159e-06,1.0361152e-05,4.7143362e-06,1.0710065e-05,1.1486613e-05,5.9519994e-06,2.629953e-05,0.00012845885,2.793543e-05,9.496396e-05,0.000106633415,8.517137e-05
85,398.089,0.16838774,0.007992516,0.16857731,2.7175019,556.7569201778024,1.7998339,1666.4375,50021.47,112.44114,1.0,65,0.009610823,0.05701137,0,35.177624489850736,0.30560362,0.16411467,6.0658727,0.4346352,0.10579705,6.399701,1.0885019e-05,1.5659021e-05,1.0866968e-05,1.2450493e-05,1.0619003e-05,3.4653508e-06,7.4526244e-05,0.00010325923,0.00013914805,0.000112455855,6.671474e-05,6.2135594e-05
86,363.02505,0.1692374,0.007875656,0.16942056,2.6644025,557.5810478169442,1.7998425,1666.4865,55666.875,120.292366,1.0,65,0.009629395,0.05683723,0,35.557769942176236,0.4320838,0.280286,6.3878818,0.38186413,0.18881325,6.443081,1.645083e-05,1.8372913e-05,2.1773192e-05,1.1746466e-05,1.618843e-05,1.06335165e-05,4.1200678e-05,0.000110133195,7.7877405e-05,6.136397e-05,0.00011349997,6.5292494e-05
87,331.16565,0.16953085,0.0077701327,0.16970882,2.6242094,558.4022674292501,1.7998433,1666.35,61850.953,129.65656,1.0,65,0.009614406,0.056652367,0,35.93649788717535,0.26284945,0.18650481,6.1619306,0.23456681,0.20477194,6.492426,8.940256e-06,1.29879e-05,9.411155e-06,1.506045e-05,3.0291521e-06,4.9755536e-06,4.9176437e-05,3.7123653e-05,4.043571e-05,5.429452e-05,8.4668194e-05,3.785835e-05
88,302.0294,0.17030454,0.008101249,0.17049712,2.7234607,559.2216256548418,1.7998387,1666.2043,65045.75,146.85503,1.0,65,0.009623953,0.056446426,0,36.314241715823066,0.416387,0.18134771,6.593576,0.39793372,0.19018322,6.915648,5.8998826e-06,3.1740128e-05,4.564284e-06,1.6324275e-05,9.000017e-06,1.2917097e-05,4.6436522e-05,0.00011237983,0.00010439588,8.788065e-05,0.000118566655,4.4628232e-05
89,275.44052,0.17061193,0.008156119,0.17080678,2.736946,560.0436504138634,1.7998252,1666.2295,70844.93,161.53464,1.0,65,0.00961975,0.056319486,0,36.69312276411841,0.4683455,0.19287376,6.204203,0.45036268,0.124265864,6.532756,2.1773703e-05,1.2631966e-05,2.0408614e-05,1.5011641e-05,1.7225955e-05,1.224563e-05,5.4475764e-05,0.000115095834,0.00014677213,0.000117635296,6.810354e-05,8.188704e-05
90,251.20601,0.17162053,0.00848473,0.17183015,2.8303354,560.8640188795398,1.7998397,1666.2433,74671.02,182.06622,1.0,65,0.009620542,0.055988673,0,37.07135089065594,0.4184613,0.16219777,6.0233607,0.3035786,0.109135464,6.5612006,1.4435725e-05,1.7214212e-05,1.147426e-05,1.6337699e-05,1.2920114e-05,2.0971649e-05,3.383678e-05,0.00010619083,6.747901e-05,4.0470837e-05,5.9767186e-05,4.861191e-05
91,229.04724,0.17169335,0.007999763,0.17187962,2.6676712,561.687820918567,1.7998377,1666.2941,86859.625,188.15831,1.0,65,0.0096129235,0.055928234,0,37.45110300992139,0.46355903,0.2739938,7.645251,0.31541765,0.29676458,6.8052983,2.03117e-05,1.3019154e-05,2.1050637e-05,1.3145869e-05,1.54856e-05,2.000927e-05,3.331926e-05,9.1016744e-05,7.85531e-05,7.1945105e-05,6.3727086e-05,4.076617e-05
92,208.86362,0.17240594,0.008301612,0.1726057,2.756751,562.512067891148,1.7998302,1666.173,91789.9,212.3291,1.0,65,0.009613557,0.05569664,0,37.83082461711693,0.37458658,0.12710491,6.063294,0.27760038,0.13747023,6.597615,1.7384977e-05,1.6702697e-05,1.5501153e-05,1.7862072e-05,9.518162e-06,5.961253e-06,5.3508375e-05,6.6878994e-05,5.1361374e-05,5.279011e-05,9.614962e-05,4.0211587e-05
93,190.5486,0.17294346,0.008032092,0.17312987,2.6591034,563.3334110234864,1.7998325,1666.038,103988.59,223.82007,1.0,65,0.009615244,0.055537753,0,38.209670183578915,0.328853,0.22901282,6.1993837,0.44395357,0.14272465,6.608659,1.0524918e-05,8.3763825e-06,1.556221e-05,1.3342713e-05,6.480706e-06,1.3891896e-05,9.0655776e-05,0.00010121652,0.000115863004,9.106703e-05,5.498831e-05,8.882382e-05
94,173.83173,0.17354943,0.008055355,0.17373627,2.6574957,564.1583253559656,1.7998338,1666.4347,113659.67,244.34013,1.0,65,0.009624796,0.055398885,0,38.58958051178794,0.36643028,0.1593201,7.4196286,0.40532205,0.25554764,7.836533,1.1173423e-05,9.081831e-06,8.277064e-06,1.1418888e-05,1.8716048e-05,1.7709855e-05,7.32278e-05,7.610617e-05,6.828851e-05,8.438285e-05,6.344805e-05,0.00012659456
95,158.52898,0.17399313,0.008180413,0.17418532,2.6918206,564.9828192084678,1.7998353,1666.8649,122725.9,270.68463,1.0,65,0.009626724,0.055267137,0,38.969718279639984,0.3195355,0.16935188,6.2339783,0.37441215,0.24355482,6.550659,1.0984035e-05,8.976751e-06,1.39040085e-05,1.0166725e-05,1.8502198e-05,8.7692315e-06,8.4531726e-05,0.00012170857,3.933629e-05,5.8791804e-05,8.53675e-05,6.405059e-05
96,144.58372,0.17445682,0.008085421,0.17464408,2.653546,565.804552954156,1.799834,1666.8615,136143.86,291.80695,1.0,65,0.009607062,0.055009373,0,39.34868311508433,0.34031233,0.1976414,6.143732,0.25587556,0.25086254,6.705005,7.125166e-06,2.1794436e-05,7.023762e-06,1.4824464e-05,7.6033907e-06,1.3554913e-05,7.5436226e-05,7.243936e-05,2.8883942e-05,3.123555e-05,4.0778217e-05,6.219699e-05
97,131.81343,0.17506972,0.00811416,0.17525765,2.6536553,566.6212279796309,1.7998382,1666.7242,148804.8,318.97015,1.0,65,0.0096199205,0.05489016,0,39.725767775906455,0.32931662,0.1648878,6.1196985,0.33536798,0.32021657,6.757248,1.4332472e-05,1.1112959e-05,1.5561538e-05,8.873091e-06,1.655932e-05,6.729746e-06,8.4400715e-05,8.483531e-05,4.3113596e-05,6.178439e-05,8.167626e-05,6.610406e-05
98,120.192024,0.17565157,0.007951218,0.17583144,2.5918381,567.4436712187016,1.7998519,1666.6086,166537.03,340.55328,1.0,65,0.009623603,0.054731984,0,40.10477713902919,0.36888346,0.23109534,6.2406907,0.47269303,0.21066457,7.5198364,1.8837589e-05,1.2423051e-05,7.6252845e-06,1.2113195e-05,1.6439688e-05,1.2536553e-05,0.00010083819,6.5057466e-05,0.00015258329,8.558772e-05,5.4188313e-05,0.00012753077
99,109.61443,0.17617747,0.007927142,0.17635572,2.5762978,568.2676672578091,1.7998313,1666.6516,183162.16,370.07516,1.0,65,0.009623298,0.054567542,0,40.48485789334234,0.40744728,0.22641909,6.047224,0.43520457,0.21891885,6.7422304,2.1142949e-05,1.4414878e-05,5.0358767e-06,1.4237828e-05,1.0148883e-05,2.0741003e-05,0.00016565729,6.609381e-05,4.5832825e-05,9.980017e-05,5.8491816e-05,7.2414616e-05
100,99.96816,0.17652331,0.0073390855,0.17667581,2.3807428,569.0890559368709,1.7998577,1666.4594,216928.44,374.32272,1.0,65,0.009609362,0.0543898,0,40.8636402557532,0.46135852,0.33850497,7.337446,0.47826105,0.17566937,7.0337024,1.32813175e-05,8.168519e-06,1.8037392e-05,2.1065576e-05,2.31096e-05,1.6422193e-05,0.0001413824,0.00011429204,0.00010331186,4.510377e-05,7.897371e-05,0.00011337671
101,91.196594,0.17736357,0.007531446,0.1775234,2.4315083,569.906369255681,1.799875,1665.9784,231719.78,417.06967,1.0,65,0.009618583,0.054182056,0,41.240648560183,0.38804325,0.08449407,6.2996974,0.32305995,0.15900224,6.941126,1.0712507e-05,6.99575e-06,1.5160605e-05,1.8058226e-05,2.225224e-05,9.316932e-06,7.9424186e-05,5.740805e-05,9.272454e-05,5.7478035e-05,5.3306034e-05,6.9382644e-05
102,83.16338,0.17783013,0.007084939,0.17797121,2.2815173,570.7363942284137,1.7998596,1665.6722,270116.97,428.07965,1.0,65,0.009605114,0.053970046,0,41.622385173123675,0.32402277,0.15890367,7.7100387,0.31559983,0.20432746,6.9055667,1.5236351e-05,1.3743255e-05,1.0665238e-05,1.03497605e-05,8.092259e-06,1.40694765e-05,6.7494024e-05,8.0621496e-05,6.558977e-05,8.623078e-05,5.769624e-05,4.1639967e-05
103,75.849144,0.17850688,0.0074725617,0.17866322,2.3970864,571.553718000534,1.7998827,1665.7087,280801.84,491.2116,1.0,65,0.00961432,0.053812526,0,42.00040776927567,0.37815854,0.188256,6.325059,0.46958047,0.17501743,6.8879943,1.2831452e-05,1.8088307e-05,1.132372e-05,1.2579999e-05,5.9381127e-06,1.7356831e-05,3.208823e-05,0.00011119611,9.5044576e-05,6.652702e-05,0.00011632877,0.00013112652
104,69.18088,0.17854448,0.007032788,0.17868294,2.2556891,572.3813389732386,1.7998736,1665.4271,327119.6,506.75192,1.0,65,0.009612957,0.053798962,0,42.381242745645416,0.36298394,0.22277816,8.136022,0.44920886,0.20684615,7.2962027,2.1403735e-05,9.17487e-06,1.7566068e-05,1.105516e-05,1.25573315e-05,3.5673181e-06,0.00011536938,7.632966e-05,7.267018e-05,0.00013669215,8.703514e-05,6.4453096e-05
105,63.08228,0.17953221,0.006760552,0.17965946,2.1565387,573.2120809593762,1.7998747,1665.272,373190.53,528.4389,1.0,65,0.009616922,0.053528614,0,42.763414361152435,0.41740963,0.20465563,6.79411,0.4126206,0.2220341,6.891389,8.833255e-06,9.735784e-06,1.8350709e-05,4.792608e-06,4.921779e-06,3.005494e-05,6.284441e-05,0.000117159725,6.904209e-05,5.9682523e-05,9.5084455e-05,9.2569615e-05
106,57.55067,0.17952016,0.006864762,0.17965136,2.1898952,574.0465166522772,1.7998618,1664.98,402850.8,588.2124,1.0,65,0.009610609,0.053495888,0,43.14740875335269,0.29630378,0.10265746,6.207615,0.30814672,0.24693549,6.854721,3.5855458e-06,8.4487365e-06,1.1756545e-05,1.4255685e-05,1.1983916e-05,1.2440031e-05,7.5269956e-05,7.879731e-05,5.6343328e-05,9.227341e-05,1.8321938e-05,4.159572e-05
107,52.468105,0.18039,0.0067244507,0.18051529,2.134843,574.8505497838487,1.7998517,1664.9138,451094.88,625.9701,1.0,65,0.009616936,0.053274907,0,43.52063523674615,0.37347153,0.16254371,5.898341,0.50386465,0.105636016,7.261658,1.8245391e-05,1.523696e-05,1.2166267e-05,8.87739e-06,9.271465e-06,1.9075245e-05,7.913757e-05,6.293058e-05,6.843599e-05,6.495162e-05,0.00013642649,0.00017527318
108,47.870724,0.18039387,0.0064979703,0.18051086,2.0629601,575.691865317167,1.7998625,1664.755,511649.3,663.01166,1.0,65,0.009612654,0.0532525,0,43.90540760963747,0.5699276,0.3400522,8.246917,0.50522137,0.27773216,8.268737,2.6820911e-05,2.2373988e-05,1.7387963e-05,2.8331138e-05,1.1934349e-05,1.4744309e-05,9.0504414e-05,8.37887e-05,0.00012802405,8.2653765e-05,9.208998e-05,0.00014609116
109,43.64528,0.18112564,0.0065466356,0.18124391,2.0700073,576.5221993832383,1.7998567,1664.6747,557012.1,726.7318,1.0,65,0.00960688,0.053005256,0,44.28838194757377,0.39786726,0.19074252,6.07177,0.3426222,0.1779279,6.985356,1.1787726e-05,1.665096e-05,1.3204945e-05,1.37365805e-05,1.6846307e-05,1.8311977e-05,6.2388324e-05,0.00010813733,6.5938286e-05,6.166702e-05,6.687698e-05,4.0876104e-05
110,39.8089,0.18137339,0.00608175,0.18147533,1.9205028,577.3439580622944,1.7998742,1665.1909,657372.25,738.30084,1.0,65,0.009619322,0.053006224,0,44.6675706307016,0.47220576,0.13730964,7.8612227,0.3403867,0.0976742,7.5929675,1.2135996e-05,1.6234279e-05,1.42344625e-05,2.1939848e-05,1.5040735e-05,2.0528048e-05,7.007355e-05,7.24929e-05,6.8197216e-05,7.242864e-05,7.163602e-05,7.5529766e-05
111,36.313087,0.18173411,0.005616957,0.1818209,1.7703089,578.1537532740622,1.7998505,1665.0911,780289.7,744.6813,1.0,65,0.009625288,0.05293829,0,45.04196469232538,0.41419262,0.27176532,7.808192,0.5443406,0.13863015,7.7996473,2.5558065e-05,3.5655214e-06,8.524876e-06,1.570888e-05,1.560054e-05,1.45460845e-05,0.00012285364,9.5993724e-05,0.00011570072,0.000118106385,0.0001428245,9.440363e-05
112,33.103825,0.18184477,0.0052541555,0.18192066,1.6550226,578.9974551008199,1.7998574,1665.366,915037.8,763.2746,1.0,65,0.009602827,0.052785795,0,45.42793040101242,0.39029166,0.14539291,5.8011665,0.28455985,0.26352224,6.9553685,1.2003374e-05,1.3105275e-05,9.762387e-06,1.5456373e-05,8.462163e-06,2.3345061e-05,2.9281393e-05,3.3438184e-05,5.6724864e-05,0.00011444259,4.1156018e-05,3.9303974e-05
113,30.20294,0.18223199,0.005424618,0.18231271,1.7050571,579.813660019543,1.7998425,1665.4729,971408.1,860.0152,1.0,65,0.0096066445,0.052693225,0,45.80577788419067,0.32327223,0.11085134,5.960287,0.3475097,0.17694782,6.9673066,1.6457747e-05,1.1241157e-05,1.1471221e-05,1.4016551e-05,9.986816e-06,8.470848e-06,6.0130755e-05,6.848391e-05,0.00011012155,7.775975e-05,4.6792975e-05,4.5535675e-05
114,27.541145,0.18261313,0.005187741,0.1826868,1.627242,580.666867153468,1.7998337,1665.6573,1113935.1,898.26,1.0,65,0.009617179,0.052642986,0,46.196130095423804,0.24518323,0.14163508,4.3891983,0.21544799,0.13948834,4.8834014,9.830365e-06,1.1912574e-05,5.380863e-06,9.940702e-06,7.773394e-06,1.104575e-05,3.8029633e-05,7.497224e-05,3.5159846e-05,3.7571797e-05,2.4568715e-05,3.7193942e-05
115,25.120602,0.18302968,0.0047729923,0.18309191,1.4938034,581.4810253521282,1.7998424,1665.735,1327392.5,902.0747,1.0,65,0.009619198,0.052537538,0,46.574019637001676,0.34275478,0.19843696,5.945811,0.31860968,0.27484706,7.162179,6.426061e-06,1.5845968e-05,8.166871e-06,8.491351e-06,1.889901e-05,1.08588765e-05,9.394435e-05,6.9195026e-05,3.918523e-05,7.2412375e-05,3.635722e-05,6.697998e-05
116,22.897125,0.18314065,0.0044171494,0.1831939,1.3816428,582.335344539315,1.7998179,1665.8585,1573609.9,914.8696,1.0,65,0.009621382,0.052520208,0,46.96506917932468,0.23331141,0.10881596,5.051323,0.30260643,0.16092612,5.3119955,4.7437256e-06,6.534771e-06,1.1803295e-05,7.5425623e-06,5.76207e-06,1.2644889e-05,8.968121e-05,6.20754e-05,8.074658e-05,5.3366293e-05,3.0414265e-05,5.0761937e-05
117,20.889044,0.18335108,0.0043851053,0.18340352,1.37005,583.1374826841056,1.7998517,1666.201,1737486.9,993.2675,1.0,65,0.009618603,0.052445028,0,47.33864959037855,0.33955005,0.1939701,6.442864,0.40745264,0.16339138,7.172013,1.7962675e-05,1.1002018e-05,1.1913828e-05,8.514756e-06,7.724239e-06,1.1892783e-05,0.000104256294,2.6221816e-05,5.2153024e-05,5.049456e-05,6.697258e-05,0.00014118366
118,19.05486,0.1837698,0.0042058835,0.18381792,1.3110822,583.9799233374943,1.7998687,1666.4265,1985899.0,1039.6709,1.0,65,0.009620191,0.052335434,0,47.723942973431164,0.4130077,0.3113851,7.8383923,0.44736525,0.21639189,7.7884016,1.0400024e-05,1.21218745e-05,1.63266e-05,1.7633292e-05,1.377739e-05,1.9631043e-05,8.439535e-05,0.00012601115,7.095401e-05,8.4003215e-05,8.7764885e-05,9.159986e-05
119,17.374008,0.18379447,0.0038696963,0.18383521,1.2061545,584.7546391075593,1.7998646,1666.5508,2367245.0,1048.9133,1.0,65,0.009610466,0.052277613,0,48.087987745273274,0.3759799,0.1812596,6.705935,0.4702703,0.2102284,7.0835595,1.6522261e-05,8.649188e-06,1.5857291e-05,9.71464e-06,1.66448e-05,1.1123525e-05,5.3025484e-05,4.482769e-05,0.00017378568,8.154265e-05,8.2377104e-05,7.6533615e-05
120,15.846864,0.18446779,0.0038247972,0.18450744,1.1878135,585.5702935730224,1.7998704,1666.7892,2625841.0,1128.3854,1.0,65,0.009622339,0.052151497,0,48.46072118147246,0.37358892,0.24230123,7.1859374,0.44465947,0.23440138,7.4134994,2.6335838e-05,8.326258e-06,9.452257e-06,1.4241435e-05,1.0623289e-05,6.9097887e-06,5.1935935e-05,0.00012063421,6.5057255e-05,0.0001194681,0.00010059148,5.941267e-05
121,14.458672,0.1840693,0.0039384114,0.18411143,1.2257336,586.4084941727924,1.7998546,1666.7264,2794928.2,1278.9434,1.0,65,0.009607046,0.052180607,0,48.844529415503395,0.42771742,0.16831742,6.7103744,0.411607,0.20806895,7.1694255,1.3737242e-05,1.1329587e-05,1.6974516e-05,2.3064622e-05,8.973056e-06,1.545656e-05,0.00014101817,9.515508e-05,7.07405e-05,4.3419375e-05,7.482482e-05,3.816083e-05
122,13.18194,0.1844853,0.0037375859,0.18452317,1.1606269,587.2765913340263,1.7998319,1666.8772,3230350.2,1325.3489,1.0,65,0.009618515,0.05212633,0,49.24245270439084,0.23354235,0.15304959,4.683186,0.397336,0.21608403,5.4331627,1.22857855e-05,8.753365e-06,1.0709079e-05,5.8426513e-06,4.6579175e-06,6.3901966e-06,7.086084e-05,0.00010172118,8.752269e-05,6.221672e-05,7.020041e-05,9.6159165e-05
123,12.019202,0.1844311,0.0032213875,0.18445924,1.0006616,588.0373686501989,1.7998574,1667.1226,4110565.0,1253.6798,1.0,65,0.009605576,0.05207425,0,49.6039633774733,0.46019658,0.083275735,6.179271,0.48908418,0.124559686,7.0017457,1.7589966e-05,9.614916e-06,1.4644063e-05,2.6403126e-05,1.8422897e-05,1.2799916e-05,0.00018029781,9.631223e-05,0.00010025925,7.1604125e-05,4.2240863e-05,6.7227564e-05
124,10.964945,0.18463147,0.0029111826,0.18465441,0.9033382,588.8453513285494,1.7998453,1667.1713,4985907.5,1239.2637,1.0,65,0.009613029,0.052059565,0,49.972722534205964,0.34423953,0.3964214,7.7851844,0.34784845,0.21050197,7.7351227,1.9352503e-05,9.337044e-06,9.507079e-06,1.329233e-05,7.975998e-06,1.4509663e-05,8.72828e-05,5.3418444e-05,9.687943e-05,6.386532e-05,8.500711e-05,2.9613058e-05
125,9.996817,0.18497798,0.0029949741,0.18500222,0.9275936,589.6610709673259,1.7998538,1667.2876,5315759.5,1393.149,1.0,65,0.009621367,0.052006762,0,50.339736298511085,0.33267054,0.15782271,6.1807394,0.5413845,0.15836556,7.8746233,1.0289415e-05,1.50321575e-05,1.635991e-05,1.5778167e-05,8.87426e-06,8.402462e-06,9.7712e-05,0.0001360716,9.680885e-05,0.00010253291,0.00010241583,7.747755e-05
126,9.116083,0.18514085,0.002482307,0.1851575,0.7681567,590.4913735933951,1.7998389,1667.6469,7033255.0,1264.1097,1.0,65,0.009626187,0.051989187,0,50.72063528455003,0.3263912,0.22284627,5.3954363,0.23358685,0.23802127,5.2745795,1.342485e-05,1.46156535e-05,8.854076e-06,1.6222632e-05,5.4330653e-06,1.0023334e-05,8.866461e-05,6.8774484e-06,3.7321573e-05,4.2974774e-05,3.5285815e-05,3.965228e-05
127,8.319989,0.18533161,0.0027372933,0.18535182,0.84618026,591.3543921943638,1.7998221,1667.9283,6988372.5,1524.1404,1.0,65,0.009624588,0.051926054,0,51.11683908195962,0.29000244,0.19076627,4.592114,0.32408607,0.19069128,5.1406193,8.11912e-06,1.321744e-05,1.2054411e-05,1.6294312e-05,6.5120644e-06,8.1575245e-06,5.5944656e-05,8.150473e-05,6.392584e-05,4.3017433e-05,7.662165e-05,3.5854842e-05
128,7.5849147,0.18521874,0.0023689154,0.18523389,0.73276305,592.2556733038509,1.7998265,1668.0621,8857678.0,1448.6987,1.0,65,0.009612214,0.051892307,0,51.53115718806228,0.30662227,0.075115345,4.3902965,0.35438618,0.1999623,4.9961247,1.5036676e-05,1.2889893e-05,6.237206e-06,1.6447095e-05,1.0103581e-05,5.701171e-06,8.021958e-05,6.0964478e-05,7.157829e-05,5.8513157e-05,8.8778084e-05,6.917913e-05
129,6.9198384,0.1854981,0.0020130794,0.18550903,0.62176603,593.2020496155164,1.7998239,1668.3433,11425186.0,1345.411,1.0,65,0.00961829,0.051848095,0,51.96598654125097,0.236913,0.2086794,5.63701,0.35035545,0.18737136,4.992859,8.188662e-06,9.055724e-06,1.14107015e-05,9.031389e-06,8.401301e-06,6.049623e-06,8.519411e-05,5.9639824e-05,8.7930755e-05,9.273409e-05,5.0421935e-05,2.8848202e-05
130,6.310582,0.18546295,0.0024458475,0.18547907,0.75556123,594.1989982762025,1.7998304,1668.4373,10311487.0,1793.041,1.0,65,0.009619507,0.05186303,0,52.425310463845044,0.21652468,0.099905156,4.122715,0.2876932,0.26377645,5.1024046,1.06533225e-05,9.526545e-06,8.939752e-06,5.4404786e-06,9.429179e-06,4.2502456e-06,6.0906907e-05,5.2764044e-05,5.442684e-05,4.5765122e-05,4.9603364e-05,7.972699e-05
131,5.755067,0.18568088,0.0019021464,0.18569063,0.5869271,595.2526367261889,1.7998272,1668.5663,14538708.0,1525.5756,1.0,65,0.009614947,0.05177939,0,52.91087873986785,0.24828693,0.12756358,3.4708729,0.3104179,0.15841027,3.958211,9.579597e-06,1.48780855e-05,8.8094375e-06,5.9340227e-06,4.277001e-06,9.937049e-06,8.283582e-05,5.0748236e-05,6.4573156e-05,4.0155905e-05,7.984864e-05,4.3509004e-05
132,5.2503347,0.18560882,0.0019461311,0.18561903,0.6007312,596.3690003259399,1.7998439,1668.9332,15576182.0,1712.2227,1.0,65,0.009621728,0.051835895,0,53.425233179345234,0.2697901,0.11812259,3.8872323,0.32164016,0.1750246,4.4379163,1.05742e-05,8.646064e-06,1.200111e-05,1.1076615e-05,1.2644424e-05,5.413705e-06,8.8578105e-05,5.3058066e-05,4.6362187e-05,0.00010277447,2.1078067e-05,4.6189125e-05
133,4.7870727,0.18570836,0.0019842298,0.18571895,0.61216235,597.5568695556976,1.799844,1669.1724,16755530.0,1912.6241,1.0,65,0.009618725,0.05179183,0,53.97336700927628,0.16265638,0.15718526,3.3702927,0.26155463,0.20947383,4.4131274,4.630494e-06,6.999646e-06,5.338881e-06,8.511385e-06,2.3589737e-06,7.4545615e-06,5.3856107e-05,6.456162e-05,2.641199e-05,5.9715665e-05,4.4768876e-05,5.3183245e-05
134,4.3645277,0.18603759,0.0017337523,0.18604566,0.53394485,598.8223579091136,1.7998244,1669.0531,21032738.0,1826.547,1.0,65,0.009620502,0.051710434,0,54.55821100743018,0.20899227,0.08171046,3.0572057,0.2062994,0.17408113,3.859103,7.380929e-06,7.3055694e-06,5.245702e-06,1.018733e-05,3.6747165e-06,9.637221e-06,9.537097e-06,3.2610114e-05,4.2717544e-05,6.7425266e-05,4.724059e-05,2.7879847e-05
135,3.9819033,0.18603496,0.001377727,0.18604006,0.42431006,600.1753828800283,1.799827,1669.2421,29011234.0,1591.0347,1.0,65,0.0096245585,0.051733796,0,55.18278625390826,0.2790909,0.07926006,3.445655,0.2768658,0.22123802,3.7499318,1.1408732e-05,7.2268144e-06,1.0090135e-05,1.2444015e-05,1.0559499e-05,1.0057126e-05,9.5390526e-05,7.94745e-05,1.7629147e-05,3.9678136e-05,3.3605073e-05,3.3085933e-05
136,3.6294982,0.18590824,0.0014521739,0.18591392,0.44754198,601.6252250289253,1.7998072,1669.1763,30196382.0,1842.334,1.0,65,0.009616759,0.05172694,0,55.85207383600447,0.17543402,0.065220624,2.8078945,0.27654043,0.2779318,3.5471632,7.884932e-06,4.632536e-06,5.3353965e-06,9.390858e-06,6.038811e-06,4.2447823e-06,3.6691115e-05,9.152995e-05,6.324216e-05,1.3381297e-05,6.609881e-05,4.4729586e-05
137,3.3103824,0.18593782,0.0013479487,0.18594271,0.41535616,603.1804657694302,1.7998129,1669.1826,35667170.0,1874.3773,1.0,65,0.009620913,0.051741276,0,56.571026954351,0.20782518,0.11886939,3.4347448,0.22680943,0.14690052,3.2485995,8.292828e-06,6.2403924e-06,6.479344e-06,1.1321789e-05,5.8779815e-06,7.929842e-06,2.2775623e-05,8.18889e-05,1.5890972e-05,3.8524453e-05,5.2141393e-05,4.2568623e-05
138,3.0210764,0.18607378,0.0012103848,0.18607771,0.37269604,604.8523360621766,1.7998227,1669.3042,43524616.0,1841.5908,1.0,65,0.009614327,0.051668342,0,57.34409951347457,0.2003831,0.09006598,2.6360395,0.27128065,0.17974816,3.2470613,1.1752999e-05,9.4275365e-06,5.389098e-06,7.4000204e-06,5.557287e-06,2.0065368e-06,8.705747e-05,6.3021966e-05,4.4844877e-05,2.147403e-05,3.547096e-05,6.375756e-05
139,2.752818,0.1859675,0.0010323849,0.18597037,0.31807005,606.6538785744488,1.7998286,1669.8594,56001664.0,1725.8251,1.0,65,0.009617313,0.051714223,0,58.17714954155403,0.1503287,0.13033369,2.5038292,0.27648517,0.2884653,2.9707856,4.4599983e-06,6.982025e-06,4.282626e-06,6.7586625e-06,4.5477273e-06,5.497362e-06,9.0829366e-05,6.947579e-05,2.5521882e-05,4.372143e-05,6.329812e-05,2.3747589e-05
140,2.5108457,0.18613559,0.0008134413,0.18613736,0.2503898,608.5969405867363,1.7998192,1670.0496,77924480.0,1488.1929,1.0,65,0.009616672,0.051664382,0,59.07572419644048,0.17978394,0.0718416,2.6793957,0.252254,0.21102853,2.643866,8.940327e-06,8.273982e-06,4.7035946e-06,5.2142227e-06,5.702023e-06,5.356502e-06,6.294961e-05,9.886697e-05,2.4063535e-05,4.5243985e-05,1.4777016e-05,1.4230086e-05
141,2.2897124,0.1860046,0.0007679299,0.18600617,0.23654735,610.6948372730549,1.7998322,1670.064,90514390.0,1542.7872,1.0,65,0.00961631,0.051698875,0,60.04751088536782,0.1454404,0.092735566,2.2067456,0.18831776,0.15923503,2.5047383,7.5616867e-06,3.4692794e-06,3.4426146e-06,8.155812e-06,3.675479e-06,5.3702142e-06,6.616187e-05,4.065847e-05,2.715413e-05,2.791423e-05,2.986863e-05,1.4640274e-05
142,2.0889044,0.18606976,0.00065709115,0.18607092,0.20233484,612.9648678875383,1.7998316,1670.0332,115951384.0,1446.0063,1.0,65,0.009620827,0.05170516,0,61.09935497252115,0.20663258,0.06822317,2.4879735,0.21496,0.2018632,2.6182058,1.2649637e-05,6.3282323e-06,6.0794873e-06,8.225486e-06,8.8221344e-07,5.891008e-06,5.8844125e-05,6.1094004e-05,3.4559736e-05,3.987127e-05,2.1320939e-05,2.4860172e-05
143,1.905717,0.18615574,0.0006270195,0.1861568,0.1929859,615.4220811775594,1.7998266,1669.8958,133192770.0,1511.0714,1.0,65,0.009618398,0.05166826,0,62.236118526065084,0.1820126,0.05624929,2.130706,0.2713915,0.10696994,2.3979135,5.9773865e-06,4.3481728e-06,8.851893e-06,9.989606e-06,1.9571034e-06,7.916321e-06,0.00010379204,5.6255078e-05,2.1797818e-05,4.2917578e-05,3.6063408e-05,3.388896e-05
144,1.7380416,0.1861241,0.0004936708,0.18612476,0.1519695,618.0852624507097,1.7998152,1669.6359,185490850.0,1304.9357,1.0,65,0.009617318,0.051671356,0,63.46765823712709,0.12585798,0.09390284,2.06564,0.18231563,0.16540673,2.185017,8.457473e-06,4.4132194e-06,4.157931e-06,3.6696606e-06,1.1118914e-06,2.2638185e-06,3.6362573e-05,5.880652e-05,3.3919685e-05,3.2085336e-05,2.3923889e-05,3.266061e-05
145,1.5853271,0.18616655,0.00049737684,0.18616723,0.15307543,620.9743026412616,1.7998188,1669.5409,201843920.0,1440.7225,1.0,65,0.009617692,0.051661573,0,64.80777449064192,0.12110491,0.043898594,2.0696964,0.16617145,0.19590673,2.368906,6.3827856e-06,1.7996239e-06,2.228335e-06,7.699997e-06,2.3930754e-06,3.9986035e-06,4.618057e-05,4.385179e-05,3.0444671e-05,2.5477617e-05,3.2682314e-05,1.6580763e-05
146,1.4451519,0.1861323,0.0001509724,0.18613236,0.046472747,624.1125985769904,1.7998219,1669.296,729472800.0,479.91068,1.0,65,0.00961659,0.051665332,0,66.2576190912056,0.19183256,0.08466874,1.9378343,0.23804738,0.37894538,2.008514,9.179736e-06,7.3718006e-06,5.9775343e-06,6.4898695e-06,2.2819402e-06,8.74605e-06,9.215165e-05,5.152137e-05,3.2594788e-05,1.8580646e-05,3.217064e-05,2.1107478e-05
147,1.3176725,0.18608075,0.00050118327,0.18608142,0.15431803,627.5246328723733,1.7998255,1671.2668,240999470.0,1748.2485,1.0,65,0.009613945,0.05166526,0,67.84225255633788,0.16637559,0.08897825,1.6068234,0.27021402,0.45498067,1.940632,8.291084e-06,4.7122494e-06,4.5419556e-06,9.554807e-06,1.561402e-06,6.6736807e-06,8.365559e-05,5.8803584e-05,3.8292732e-05,4.494536e-05,3.7203114e-05,2.0930616e-05
148,1.2028515,0.18598409,0.00034679094,0.18598442,0.106835134,631.2325396618107,1.7998123,1671.0499,381540260.0,1326.5472,1.0,65,0.009615848,0.051702436,0,69.55734332085376,0.16218561,0.050280027,1.6391941,0.22862425,0.24147363,1.8161837,7.050549e-06,5.6381864e-06,4.190539e-06,9.657196e-06,2.2776328e-06,6.2257886e-06,5.9468326e-05,7.9041005e-05,3.2197888e-05,3.67897e-05,2.7278591e-05,2.3805747e-05
149,1.0960326,0.18604594,0.00015232367,0.186046,0.046910465,635.272622493736,1.7998124,1671.1987,953299260.0,639.0331,1.0,65,0.009617466,0.051694017,0,71.43410800673463,0.18084708,0.11054278,1.6650048,0.13311557,0.20695074,1.7794644,8.600023e-06,7.423204e-06,3.7790849e-06,1.1406593e-05,4.173947e-06,2.9831087e-06,1.6779351e-05,4.0726474e-05,2.781273e-05,3.3637083e-05,1.6067073e-05,1.9454357e-05
150,1.0000616,0.18606721,0.00017644004,0.1860673,0.05433126,639.6712121960009,1.7998133,1671.4935,901978560.0,811.0552,1.0,65,0.009620186,0.051702723,0,73.47095799883694,0.13593636,0.11057554,1.7359039,0.2604138,0.3509711,1.6432779,5.6504073e-06,3.946629e-06,3.4322604e-06,7.664947e-06,2.157329e-06,5.490257e-06,9.789186e-05,5.4045344e-05,4.885605e-05,3.1619013e-05,1.7509687e-05,2.1480162e-05
